349
16
45
100
184
297
440
608
799
1006
1227
1454
1685
1914
2137
2351
2553
2741
2913
3068
3205
3324
3424
3507
3573
3622
3656
3675
3681
3675
3659
3633
3599
3558
3511
3459
3403
3345
3284
3221
3158
3094
3030
2967
2905
2844
2784
2726
2671
2619
2570
2522
2477
2433
2391
2350
2310
2272
2234
2198
2163
2129
2096
2063
2032
2002
1972
1943
1915
1887
1861
1835
1810
1786
1762
1739
1717
1695
1674
1653
1633
1613
1593
1575
1556
1538
1520
1503
1486
1470
1454
1438
1422
1407
1407
1407
1406
1403
1398
1388
1375
1356
1331
1300
1264
1222
1174
1123
1067
1007
946
883
819
755
692
630
570
512
458
406
358
313
272
235
201
171
144
121
101
83
68
56
46
37
31
26
22
19
17
16
16
16
16
15
14
13
12
11
10
8
7
7
6
5
5
4
4
4
3
3
3
3
3
3
3
3
3
3
3
2
2
2
2
2
2
2
2
2
2
2
2
2
2
2
2
2
2
2
2
2
2
2
2
2
2
2
2
2
2
2
2
2
2
2
2
2
1
1
2
2
2
2
2
2
2
2
2
2
2
2
2
2
2
2
1
1
1
1
2
2
2
2
2
2
2
2
2
2
2
2
2
2
2
2
2
2
2
2
2
2
2
2
2
2
2
2
2
2
2
2
2
2
2
2
2
2
2
2
2
2
2
2
2
2
2
2
2
2
2
2
2
2
2
2
2
2
2
2
2
2
2
2
2
2
2
2
2
2
2
2
2
2
2
2
2
2
2
2
2
2
2
2
2
2
2
2
2
2
2
2
2
2
2
2
2
2
2
2
2
2
2
2
2
2
2
2
2
2
2
2
2
2
2
2
2
2
2
2
2
2
2
2
2
2
2
2
2
2
2
2
2
2
2
2
2
2
2
2
2
2
2
2
2
2
2
2
2
2
2
2
2
2
2
2
2
2
2
1
1
1
2
2
2
2
2
2
1
1
1
1
1
1
1
1
2
2
2
2
2
1
1
1
1
1
1
1
2
2
2
1
1
1
1
1
1
1
2
2
2
2
2
1
1
1
1
2
2
2
2
2
2
2
2
2
2
2
2
2
2
2
2
2
2
2
2
2
2
2
2
2
2
2
2
2
2
2
2
2
2
2
2
2
2
2
2
2
2
2
2
2
2
2
2
2
2
2
2
2
2
2
2
2
2
2
2
2
2
2
2
2
2
2
2
2
2
2
2
2
2
2
2
2
3
3
3
3
3
3
3
4
4
4
4
4
4
4
5
5
5
5
5
5
5
5
5
5
5
5
5
5
5
5
5
5
5
5
5
5
5
5
5
5
5
5
5
5
5
5
5
5
5
5
5
5
5
5
5
5
5
5
5
5
5
5
5
5
5
5
5
5
5
5
5
5
5
5
5
5
5
5
5
5
5
5
5
5
5
5
5
5
5
5
5
4
4
4
4
4
4
4
3
3
3
3
3
3
2
2
2
2
2
2
2
2
2
2
2
2
2
2
2
2
2
2
2
2
2
2
2
2
2
2
2
2
2
2
2
2
2
2
2
2
2
2
2
2
2
2
2
2
2
2
2
2
2
2
2
2
2
2
2
2
2
2
2
2
2
2
2
2
2
2
2
2
2
2
2
2
2
2
2
2
2
2
2
2
2
2
2
2
2
2
2
2
2
2
2
2
2
2
2
2
2
2
2
2
2
2
2
2
2
2
2
2
2
3
3
3
3
4
4
4
4
4
5
5
5
5
5
5
5
5
6
6
6
6
6
6
6
6
6
6
6
6
6
6
6
6
6
6
6
6
6
6
6
6
6
6
6
6
7
7
7
7
7
7
8
8
8
8
9
9
9
9
10
10
10
10
10
10
11
11
11
11
11
12
12
12
13
13
14
14
15
15
16
16
17
17
18
18
19
19
19
20
20
21
21
22
22
22
23
23
23
24
24
24
24
25
25
25
26
26
26
26
27
27
27
27
27
27
28
28
28
28
28
28
29
29
29
29
30
30
30
30
30
30
31
31
31
31
31
31
31
32
32
32
32
32
31
31
31
31
31
30
30
30
30
30
30
30
30
30
30
30
30
30
31
31
31
31
31
30
30
30
29
29
28
28
28
27
27
27
27
27
27
27
27
27
27
27
27
27
27
27
27
26
26
26
26
26
26
26
26
26
26
26
26
26
26
26
26
26
26
26
26
26
26
26
26
26
26
27
27
27
28
28
28
29
29
29
30
30
31
31
31
32
32
32
33
33
33
34
34
34
35
35
35
35
35
35
35
35
35
35
35
35
35
35
36
36
36
37
37
37
38
38
39
39
40
40
41
41
41
42
42
42
42
42
42
42
42
42
42
42
41
41
41
40
40
40
39
39
39
38
38
38
38
38
38
38
38
39
39
39
40
40
41
42
43
43
44
44
45
45
46
46
46
46
46
46
47
47
47
47
47
47
47
47
47
46
46
46
46
46
46
46
46
46
46
46
46
47
47
47
48
48
48
49
49
49
49
49
49
49
49
48
48
48
48
48
47
47
47
47
47
46
46
46
46
46
46
45
45
45
44
44
44
43
43
43
43
43
43
43
43
43
44
44
44
44
43
43
43
43
43
42
42
42
41
41
40
40
39
39
38
38
37
37
36
36
35
34
34
33
33
32
32
32
31
31
31
31
31
31
31
31
32
32
32
33
33
34
34
34
35
35
36
36
36
36
37
37
37
37
37
37
36
36
36
36
35
35
35
35
35
35
35
35
36
36
36
37
37
38
38
39
40
40
41
42
43
43
44
44
45
45
46
46
47
47
47
48
48
48
48
49
49
50
50
50
51
51
51
52
52
53
53
54
54
55
55
56
56
57
57
58
58
59
59
60
60
60
60
60
60
60
60
60
59
59
59
58
58
57
57
56
56
55
55
55
54
54
53
53
52
52
52
51
51
51
51
51
51
51
52
52
52
52
52
51
51
51
51
51
50
50
50
49
49
48
48
47
47
46
46
45
44
44
43
43
42
42
41
41
41
40
40
39
39
38
38
37
36
36
36
35
35
35
35
34
34
34
34
34
34
34
34
34
34
34
34
34
33
33
33
33
33
33
34
34
34
34
34
34
35
35
36
36
36
37
37
38
38
39
39
39
40
40
41
41
41
42
42
42
42
42
43
43
43
42
42
42
42
42
42
42
42
42
41
41
41
41
41
40
40
40
40
41
41
41
41
42
42
42
42
43
43
43
43
43
44
44
44
44
45
45
45
45
45
44
44
44
44
44
43
43
44
44
44
44
44
45
45
45
46
46
47
47
47
48
48
49
49
49
49
49
49
49
49
48
48
47
47
47
46
46
45
45
45
44
44
44
44
44
44
44
44
45
45
45
45
46
46
46
46
46
47
47
47
47
47
47
47
47
47
47
47
47
47
47
47
46
46
46
45
45
44
44
44
43
43
43
43
43
43
43
43
44
44
44
44
45
45
46
46
46
46
46
46
46
46
46
45
45
44
44
43
42
42
41
40
39
39
38
37
36
36
35
35
34
34
34
34
33
33
33
33
33
33
33
33
33
33
33
32
32
32
31
31
30
30
30
29
29
29
28
28
28
28
29
29
29
30
30
30
31
31
32
32
33
33
34
34
34
34
34
34
35
35
35
35
36
36
36
36
37
37
37
38
38
38
38
39
39
39
39
40
40
40
41
41
41
41
41
41
41
41
41
41
40
40
40
40
40
39
39
40
40
40
40
40
41
41
41
41
41
41
41
41
41
41
42
42
42
43
44
44
45
46
46
47
48
48
49
49
50
50
50
50
50
50
50
50
49
49
49
48
48
48
48
49
49
49
50
50
51
52
53
54
55
56
57
58
59
60
61
62
63
63
64
64
64
65
65
64
64
64
64
63
63
63
63
63
64
64
65
66
67
68
69
70
72
73
74
76
77
78
79
79
80
80
81
81
81
81
81
81
82
82
83
84
84
84
85
85
85
85
85
84
84
83
83
82
81
81
80
80
80
81
81
82
84
85
87
89
91
93
95
98
100
102
105
107
109
111
113
115
117
119
121
123
124
126
128
129
131
132
134
135
136
138
139
141
142
144
145
146
148
149
151
152
153
154
155
156
156
156
156
156
156
156
156
156
156
156
155
155
155
154
154
153
153
152
151
151
151
152
153
154
155
156
157
158
160
161
163
164
166
168
169
171
173
174
176
178
180
183
185
187
188
190
192
193
194
195
196
197
197
198
198
198
198
197
197
196
195
194
193
192
190
188
187
185
182
180
178
176
173
171
169
168
166
164
163
162
161
160
159
159
158
158
158
158
159
159
159
160
160
160
160
160
160
160
160
159
159
158
158
157
157
157
156
156
157
157
157
158
159
159
160
160
160
160
160
160
161
161
161
162
163
164
165
166
167
168
169
171
172
174
175
177
178
179
181
182
184
185
186
187
187
188
189
189
190
190
190
191
191
190
190
190
189
188
187
186
185
184
184
185
186
187
188
190
191
193
195
197
198
200
202
203
204
206
207
207
208
209
209
210
211
211
212
213
214
216
217
218
219
221
222
223
225
226
227
229
230
231
232
233
234
235
236
237
238
239
239
239
239
239
238
237
236
234
232
229
226
223
220
217
213
210
207
203
200
197
194
190
187
184
181
178
175
172
169
167
164
162
160
158
156
155
153
152
151
150
150
149
149
150
150
149
149
148
147
145
144
142
141
139
137
135
133
131
129
127
124
122
120
118
116
114
112
110
108
106
105
103
102
101
100
99
99
98
98
98
98
99
99
100
100
101
102
103
104
104
105
106
107
107
108
109
109
110
111
112
113
115
116
118
120
122
125
127
129
131
133
135
137
139
141
143
145
146
148
150
151
152
153
154
154
154
154
154
154
153
153
152
152
153
153
154
155
156
157
159
160
161
162
163
163
163
163
163
163
162
161
160
160
160
159
159
159
159
159
159
159
159
159
158
157
157
156
155
154
152
151
150
148
146
145
143
140
138
136
134
132
130
128
126
125
124
123
122
121
120
119
118
117
116
115
113
112
110
109
107
105
103
101
99
97
94
92
90
88
86
84
83
81
80
78
77
76
76
75
75
75
75
75
76
76
76
76
75
74
73
72
71
70
69
68
67
67
66
65
65
65
64
64
64
64
64
64
64
63
62
62
61
61
61
60
60
60
60
60
60
59
59
59
59
59
60
60
61
62
63
65
66
68
69
70
72
73
73
74
74
75
75
75
74
74
73
72
72
71
70
70
69
69
69
68
68
68
69
69
69
69
69
69
69
69
69
68
68
68
67
67
66
66
66
65
65
65
65
65
65
65
65
65
65
65
65
65
65
64
64
64
63
63
63
62
62
62
62
62
62
62
62
62
62
62
62
62
62
61
61
61
61
61
62
62
63
63
63
63
63
63
62
62
61
60
60
59
58
57
56
55
54
53
53
52
51
51
50
50
50
49
49
48
48
47
47
47
47
46
46
46
46
45
45
45
45
45
46
46
46
46
46
47
47
46
46
46
46
45
45
45
44
44
43
43
43
42
42
42
41
41
41
40
40
40
40
40
40
40
40
40
41
41
41
42
42
43
43
44
44
45
45
46
46
46
45
45
44
44
44
44
43
43
43
43
42
42
41
41
40
40
39
39
38
38
38
37
37
37
37
37
37
38
39
39
40
41
42
43
44
44
45
45
45
45
45
45
45
45
46
46
46
46
47
47
48
48
48
49
49
50
50
51
51
52
52
52
52
53
53
53
53
53
53
53
53
53
54
54
54
54
54
54
54
54
54
54
54
54
54
54
55
55
55
55
55
55
56
56
57
58
58
59
59
59
59
59
59
59
59
59
58
58
58
57
56
56
55
55
54
54
53
53
52
52
51
51
50
50
49
49
48
48
47
47
47
47
47
48
48
49
49
50
50
50
50
50
49
49
49
48
48
47
47
46
46
46
46
45
46
46
46
46
46
47
47
48
48
49
49
50
51
51
51
52
52
52
51
51
51
50
50
49
48
48
47
46
46
45
45
44
44
43
43
42
42
42
41
41
41
41
41
42
42
42
42
43
43
43
44
45
45
45
46
46
46
46
46
47
47
47
47
47
48
48
48
48
48
49
49
49
49
48
48
48
48
47
47
47
46
46
46
46
46
45
45
45
45
45
45
45
45
45
44
44
44
44
44
44
44
44
43
43
43
43
43
43
43
42
42
42
42
42
43
43
43
43
43
43
44
43
43
43
43
43
43
43
44
44
45
45
45
45
46
46
46
46
46
46
46
46
46
46
46
46
46
46
46
46
46
47
47
47
47
47
47
48
48
48
48
48
48
48
48
48
48
48
48
48
48
48
48
48
48
48
48
49
49
49
50
50
51
52
52
53
53
54
54
55
55
55
56
56
56
56
56
56
56
56
56
56
56
56
56
56
56
55
55
55
55
54
54
54
54
54
54
54
54
53
53
53
52
52
52
51
51
51
50
50
50
49
49
49
49
49
49
49
49
49
49
49
49
49
48
48
48
47
47
46
46
45
45
44
44
44
43
43
43
43
43
43
43
44
44
44
45
45
45
46
46
46
46
46
46
46
46
46
46
45
45
45
45
44
44
44
44
44
44
44
44
44
44
44
44
44
44
44
44
44
44
45
45
46
46
47
47
48
49
49
50
51
52
52
53
54
54
55
55
56
56
56
57
57
57
57
57
57
57
57
57
57
57
57
58
58
58
58
58
59
59
59
60
60
61
61
61
62
62
62
62
62
62
62
62
62
62
61
61
61
60
60
59
59
59
58
58
58
57
57
57
56
56
56
56
56
55
55
55
55
54
54
54
54
54
54
54
54
54
54
54
54
53
53
53
53
52
52
52
51
51
50
50
49
48
48
47
47
46
46
45
44
44
43
43
42
42
41
41
40
40
40
39
39
38
38
38
38
37
37
37
37
36
36
36
35
35
35
35
35
34
34
34
34
34
34
34
34
34
34
34
34
34
33
33
33
33
33
33
32
32
32
32
32
32
32
31
31
31
31
31
31
31
32
32
33
33
34
34
35
36
36
37
38
38
39
40
40
41
41
41
42
42
42
43
43
43
44
44
44
45
45
45
45
45
45
45
46
46
46
46
47
47
47
47
48
48
48
48
48
48
48
48
48
48
49
49
49
49
49
49
50
50
50
50
50
50
50
50
50
50
50
50
51
51
51
51
51
51
51
51
52
52
52
52
52
52
53
53
53
54
54
54
55
55
56
56
56
56
56
55
55
55
55
54
54
54
53
53
53
52
52
52
52
52
52
52
52
52
52
52
52
52
52
52
52
52
52
52
53
52
52
52
52
52
52
51
51
51
51
51
51
51
51
51
51
51
50
50
50
50
49
49
48
48
47
46
46
46
45
45
45
45
45
45
45
45
45
46
46
47
48
48
49
49
50
50
50
50
51
50
50
50
50
50
49
49
49
49
49
49
49
49
49
49
49
49
49
49
49
49
49
50
50
50
50
50
51
51
51
51
52
52
52
52
52
52
52
52
52
52
53
53
54
55
56
57
58
59
60
61
62
63
64
65
65
66
67
68
69
70
71
72
73
74
76
77
78
79
80
81
82
82
83
83
83
84
84
84
85
85
85
86
86
87
87
87
88
88
89
90
90
91
91
92
92
92
93
93
93
93
92
92
92
91
91
90
90
89
88
88
87
87
86
85
85
84
83
83
82
81
81
80
80
79
79
79
79
79
80
80
81
81
82
82
83
83
83
83
83
83
83
83
83
84
84
85
85
86
88
89
90
92
93
94
95
96
97
98
98
99
99
99
99
98
98
98
99
99
99
100
101
101
102
102
102
102
102
102
101
101
100
99
98
98
97
97
97
97
97
98
98
99
100
101
102
103
104
105
106
108
109
111
112
114
116
118
120
122
124
125
127
129
131
132
134
135
137
138
139
139
140
140
140
140
140
139
139
138
137
137
136
136
135
135
134
134
133
132
131
130
129
127
126
124
122
120
118
116
114
113
112
111
110
110
110
110
110
111
112
112
112
112
112
111
111
109
108
107
106
104
103
103
102
102
101
101
101
100
100
100
99
99
98
98
97
97
97
97
97
97
97
97
97
96
96
95
94
93
92
90
89
88
86
85
84
82
81
80
78
77
76
74
73
72
71
71
70
70
70
71
72
72
73
74
76
77
78
80
81
82
84
85
87
88
90
91
93
95
96
98
100
101
103
104
105
106
106
107
107
107
107
107
106
106
106
105
105
106
106
107
108
109
111
112
113
115
116
117
118
119
119
120
121
121
121
121
121
121
121
121
120
120
119
118
118
117
116
116
115
114
114
113
113
112
112
112
112
112
113
113
114
115
115
117
118
119
121
122
124
126
127
128
129
130
131
132
132
133
133
132
132
132
131
130
129
128
127
125
124
122
120
118
116
115
113
112
110
109
108
107
107
106
106
106
107
107
108
108
109
110
110
110
110
110
110
109
108
107
106
105
104
103
103
103
103
103
104
105
106
107
108
109
110
111
111
112
112
113
113
113
114
114
115
117
118
120
121
123
125
127
128
130
131
132
133
134
135
135
135
135
134
133
133
131
130
128
127
125
123
122
120
119
118
118
117
117
117
117
117
118
118
119
120
122
123
124
125
126
127
128
128
128
128
128
127
126
125
123
122
121
119
118
117
116
115
114
113
113
112
112
112
112
112
113
113
113
113
113
113
113
112
112
112
112
112
112
112
113
113
114
114
115
115
115
116
116
115
115
114
113
112
110
109
107
105
103
102
100
98
97
95
94
92
91
90
90
89
89
89
89
90
90
90
91
91
91
91
90
90
89
88
87
86
85
84
83
82
80
79
78
77
76
75
74
73
72
71
71
70
70
70
70
70
70
69
69
69
69
68
68
68
67
67
66
66
66
65
64
64
63
62
61
60
59
57
56
54
53
51
49
47
46
44
42
41
39
38
36
35
34
33
32
31
30
29
28
28
27
26
26
25
25
24
24
23
23
23
22
22
21
21
20
19
19
18
17
17
16
15
14
14
13
12
11
11
10
10
9
9
8
8
7
7
7
6
6
6
5
5
5
4
4
4
4
3
3
3
3
3
3
3
2
2
2
2
2
2
2
2
2
2
2
2
2
2
2
2
2
2
2
2
2
2
2
2
2
2
2
2
2
2
2
2
2
2
2
2
2
2
2
2
2
2
2
2
2
2
2
2
2
2
2
2
2
2
2
2
2
2
2
2
2
2
2
2
2
2
2
2
2
2
2
2
2
2
2
2
2
2
2
2
2
2
2
2
2
2
2
2
2
2
2
2
2
2
2
2
2
2
2
2
2
2
2
2
2
2
2
2
2
2
2
2
2
2
2
2
2
2
2
2
2
2
2
2
2
2
2
2
2
2
