54
10
29
64
118
192
283
392
515
649
791
938
1087
1235
1379
1518
1649
1770
1881
1982
2070
2147
2212
2266
2308
2340
2362
2374
2378
2375
2364
2347
2325
2299
2268
2235
2199
2161
2122
2081
2040
1999
1958
1917
1877
1837
1799
1761
1726
1692
1660
1630
1600
1572
1545
1518
1493
1468
1444
1420
1398
1375
1354
1333
1313
1293
1274
1255
1237
1219
1202
1186
1170
1154
1139
1124
1109
1095
1081
1068
1055
1042
1030
1017
1005
994
982
971
960
950
939
929
919
909
909
909
908
907
903
897
888
876
860
840
817
790
759
726
689
651
611
571
529
488
447
407
368
331
296
263
231
203
176
152
130
111
94
78
65
54
44
36
30
24
20
17
14
13
11
11
11
11
10
10
9
9
8
7
6
6
5
5
4
4
3
3
3
3
3
2
2
2
2
2
2
2
2
2
2
2
2
2
2
2
2
2
2
2
1
1
2
2
2
2
2
2
2
2
2
2
2
2
2
2
2
2
1
1
1
2
2
2
2
2
2
2
2
2
2
2
2
2
2
2
2
2
2
2
2
2
2
2
2
2
2
2
2
2
2
2
2
2
2
2
2
2
2
2
2
2
2
2
2
2
2
2
2
2
2
2
2
2
2
2
2
2
2
2
2
2
2
2
2
2
2
2
2
2
2
2
2
2
2
2
2
2
2
2
2
2
2
2
2
2
2
2
2
2
2
2
2
2
2
2
2
2
2
2
2
2
2
2
2
2
2
2
2
2
2
2
2
2
2
2
2
2
2
2
2
2
2
2
2
2
2
2
2
2
2
2
2
2
2
2
2
2
2
2
2
2
2
2
2
2
2
2
2
2
2
2
2
2
2
2
2
2
2
2
2
2
2
2
2
2
2
2
2
2
2
2
2
2
2
2
2
2
2
1
1
1
1
1
1
1
2
2
2
2
2
2
1
1
1
1
1
1
1
1
1
1
2
2
2
2
2
2
1
1
1
2
2
2
2
2
2
2
2
2
2
2
2
2
2
2
2
2
2
2
2
2
2
2
2
2
2
2
2
2
2
2
2
2
2
2
2
2
2
2
2
2
2
2
2
2
2
2
2
2
2
2
2
2
2
2
2
2
2
2
2
2
2
2
2
2
2
2
3
3
3
3
4
4
4
4
5
5
5
5
6
6
6
6
6
6
6
6
7
7
7
7
7
7
7
7
7
7
7
7
7
7
7
7
7
7
7
7
7
7
7
7
7
7
7
8
8
8
8
8
8
8
8
8
8
8
8
8
8
8
8
9
9
9
9
9
9
9
9
9
9
9
10
10
10
10
10
10
10
10
10
11
11
11
11
11
11
11
11
11
11
11
11
11
10
10
10
10
10
10
10
10
10
10
10
10
10
10
10
10
10
10
10
10
10
10
10
10
10
11
11
11
12
12
13
13
13
14
14
15
15
15
16
16
16
16
16
17
17
17
17
17
17
17
17
18
18
18
18
19
19
19
19
19
20
20
20
20
20
20
20
20
20
20
20
20
20
20
20
20
20
21
21
21
21
21
21
21
22
22
22
23
23
24
24
24
24
25
25
25
25
25
25
26
26
26
27
28
28
29
30
31
32
33
33
34
35
36
37
38
39
39
40
41
41
42
42
42
43
43
43
43
43
43
43
43
43
43
43
43
43
43
43
43
43
43
44
44
44
45
45
46
47
47
48
49
49
50
51
52
53
53
54
55
56
57
57
58
58
59
59
59
59
60
60
60
60
60
60
60
61
61
61
61
61
61
61
61
62
62
62
62
63
63
64
64
65
65
65
66
66
66
67
67
67
68
68
69
69
70
71
72
72
73
74
75
76
76
77
78
78
79
79
80
80
81
81
81
82
82
82
83
83
84
84
85
85
86
86
86
86
86
85
85
85
84
83
83
82
81
81
80
79
78
78
77
76
75
75
74
74
73
73
73
73
73
72
72
73
73
73
73
73
73
73
73
73
73
73
73
73
73
73
73
73
73
72
72
71
71
70
69
69
68
67
66
65
64
63
62
61
60
59
58
57
55
54
53
51
50
49
48
46
45
44
43
42
41
41
40
39
38
38
37
36
36
35
35
35
34
34
34
34
34
34
34
34
34
34
34
34
34
34
34
35
35
35
35
35
35
36
36
36
36
36
36
37
37
37
37
37
37
38
38
38
38
38
39
39
39
39
40
40
40
40
40
41
41
41
42
42
43
43
44
44
45
46
46
47
47
48
48
48
48
48
48
47
47
47
47
46
46
45
45
45
44
44
44
44
44
44
44
44
44
45
45
45
45
45
46
46
46
46
46
46
46
45
45
45
45
44
44
44
44
44
43
43
43
43
43
43
43
43
43
43
43
43
43
43
44
44
44
44
45
45
45
45
45
45
45
45
45
44
44
44
44
43
43
43
43
43
44
44
44
44
45
45
45
45
46
46
46
46
46
46
46
46
46
46
46
46
47
47
48
49
50
51
53
54
55
56
56
57
58
58
59
59
60
60
60
60
60
60
60
60
60
60
60
60
60
61
61
61
61
61
61
61
61
62
62
62
62
62
62
62
62
62
62
63
63
63
63
64
64
64
64
64
64
64
64
64
64
64
64
64
64
64
63
63
63
62
62
61
61
60
60
59
59
58
58
58
57
57
57
57
57
57
58
58
58
58
59
59
59
59
59
58
58
57
56
55
54
53
53
52
51
50
49
48
47
46
46
45
45
45
45
46
46
46
47
47
48
48
49
49
50
50
51
52
52
53
53
54
55
55
56
56
56
57
57
58
58
58
58
58
59
59
59
59
59
59
59
59
59
59
59
59
60
60
60
60
61
61
61
62
62
62
62
62
62
62
62
62
61
61
60
60
59
58
58
58
57
57
57
57
57
58
58
58
59
60
61
62
63
64
65
67
68
69
71
72
74
76
78
79
81
83
84
86
87
89
90
91
92
93
93
94
95
95
95
96
96
96
96
96
96
96
96
96
96
96
96
95
95
95
95
95
95
94
94
94
93
93
93
92
92
92
91
91
90
89
89
88
88
88
88
88
88
88
88
89
89
89
90
91
92
93
94
95
96
97
98
100
101
102
103
104
105
106
107
109
110
111
112
114
115
117
118
120
121
123
124
126
127
129
130
131
132
133
134
135
136
137
137
137
138
138
138
138
138
137
137
137
137
137
137
137
137
136
136
137
137
137
138
138
139
140
141
142
143
144
146
147
148
149
151
152
154
156
158
160
162
164
166
168
171
172
174
176
177
178
179
180
180
181
181
182
182
182
182
182
182
181
181
180
179
178
177
175
174
172
171
169
167
165
163
161
159
158
156
154
152
151
149
148
147
146
145
144
143
143
143
142
142
142
142
142
143
143
144
145
146
148
149
151
152
154
156
157
159
160
161
162
163
163
164
164
163
163
163
163
163
163
163
164
164
165
166
167
168
169
169
170
171
172
172
173
174
175
175
176
177
179
180
182
183
185
187
189
190
192
194
196
198
200
202
205
207
209
212
214
216
219
221
223
225
227
229
231
232
233
234
234
234
234
234
233
232
231
230
229
227
226
224
223
221
220
218
217
215
214
212
211
209
207
206
204
202
200
198
197
195
194
192
191
190
189
189
189
189
189
189
189
190
190
190
190
189
189
189
188
188
188
187
187
187
187
187
188
188
189
189
190
190
191
191
191
192
192
192
192
192
192
191
191
191
190
190
189
189
188
187
187
186
186
186
185
185
185
185
185
186
186
187
187
188
188
189
189
190
190
190
190
190
190
190
190
190
190
190
190
190
190
190
190
190
190
191
191
191
191
192
192
193
193
194
195
196
197
198
199
200
202
203
205
206
207
209
210
211
212
213
214
214
214
215
214
214
214
213
212
210
209
207
205
203
201
199
196
194
192
190
187
185
183
181
179
177
175
173
172
170
168
167
165
164
162
161
160
158
157
155
154
153
151
150
149
148
147
147
147
147
148
148
149
150
151
152
153
154
154
155
155
155
156
156
156
156
157
157
157
157
157
157
157
156
155
154
153
152
150
149
148
147
146
145
144
143
142
141
140
140
139
138
138
138
137
137
137
137
137
137
138
138
139
139
140
141
141
142
143
144
144
145
146
147
148
149
150
151
152
153
154
155
156
156
157
157
158
158
158
158
158
158
158
158
158
157
157
157
156
156
155
155
154
154
153
153
152
152
151
150
150
149
148
147
146
145
144
143
143
142
142
142
143
143
144
145
146
147
148
150
151
152
153
154
154
154
153
153
152
151
151
150
149
149
148
147
146
144
143
141
139
137
134
132
130
128
126
124
123
122
120
119
118
118
117
116
115
114
114
113
113
112
112
112
112
112
112
112
112
112
113
113
113
113
113
113
113
114
114
115
116
117
118
119
120
120
121
121
122
122
122
121
121
121
121
120
121
121
122
123
124
125
125
126
126
127
127
127
127
126
126
126
126
126
126
126
126
126
126
126
127
127
128
128
128
129
129
129
130
130
131
131
132
133
134
136
137
139
140
140
141
141
141
141
141
141
140
140
140
140
140
140
141
141
141
141
142
142
141
141
141
141
140
140
140
139
139
139
139
139
139
139
138
138
138
137
137
136
135
134
132
131
130
129
128
127
127
126
126
126
126
126
125
125
124
123
122
120
119
118
116
115
114
112
111
110
109
108
107
107
106
106
106
106
106
106
105
105
105
105
105
104
104
103
102
101
100
99
98
97
95
94
93
92
91
89
88
87
87
86
85
84
83
83
82
81
80
80
79
78
78
77
76
76
75
75
74
74
73
72
72
71
71
70
70
70
69
69
69
69
69
69
69
70
70
70
71
71
72
72
71
71
70
70
69
69
69
69
69
69
69
69
69
70
70
70
70
71
71
71
71
71
71
71
70
70
69
69
68
67
67
66
65
65
64
63
63
62
62
62
62
62
62
62
62
63
63
64
65
65
66
67
68
68
69
69
70
70
70
70
70
69
69
69
69
68
68
68
68
68
68
68
68
69
69
70
70
70
71
71
71
71
72
72
72
73
73
73
74
75
75
76
77
78
79
80
81
82
83
84
84
85
85
85
85
85
85
85
85
84
84
84
83
83
82
82
81
80
80
79
79
79
79
79
79
80
80
81
81
82
82
83
84
84
85
85
85
85
85
85
85
84
83
83
82
82
81
81
80
80
80
79
79
79
79
78
78
78
77
77
76
76
75
75
75
74
74
74
73
73
73
72
71
71
70
69
68
67
66
65
64
63
62
61
59
58
57
56
55
54
53
52
51
50
49
48
47
47
46
45
45
44
43
43
42
42
42
41
41
42
42
42
42
42
42
42
42
42
42
41
41
40
39
39
38
37
37
36
35
35
34
33
33
32
32
32
32
32
32
32
32
31
31
31
30
30
30
30
31
31
31
32
32
33
34
34
35
35
36
36
37
37
37
37
38
38
38
38
38
39
39
40
40
40
41
41
42
43
43
44
44
45
46
46
47
47
47
48
48
49
49
50
50
51
52
52
53
53
54
55
55
56
56
56
56
56
56
56
56
56
55
55
55
55
55
55
55
55
55
55
55
55
55
55
56
56
56
56
57
57
57
58
58
58
59
59
60
60
60
60
60
59
59
58
58
57
56
56
55
54
53
52
51
50
50
49
48
48
47
47
46
45
45
45
44
44
43
43
42
41
41
40
39
39
38
38
38
37
37
37
37
36
36
36
36
35
35
34
34
33
33
32
32
32
31
31
31
31
31
31
32
32
32
32
33
33
34
34
34
34
35
35
35
36
36
37
37
38
38
39
39
40
40
40
40
40
40
40
40
40
39
39
38
38
38
38
38
38
38
38
38
38
39
39
39
40
40
41
41
42
42
43
43
44
44
44
44
45
45
45
45
45
46
46
47
47
48
48
49
49
50
50
51
51
52
52
53
53
53
54
54
55
55
55
56
56
56
56
56
56
56
55
55
55
55
55
55
55
54
54
54
53
53
53
52
51
51
50
49
48
48
47
46
45
45
44
44
43
43
42
42
42
42
42
42
43
43
43
44
44
44
44
44
44
45
45
45
45
44
44
44
44
44
43
43
43
43
43
43
44
44
44
45
45
46
46
47
47
47
48
48
48
48
48
48
48
48
47
47
47
46
46
46
45
45
45
46
46
46
46
46
47
47
47
47
47
47
47
47
47
47
47
46
46
46
46
46
46
46
47
47
47
47
47
47
47
47
47
47
47
47
48
48
48
49
49
49
50
50
50
50
50
50
50
50
50
49
49
49
48
48
48
47
47
47
46
46
46
46
45
45
45
45
45
44
44
44
44
43
43
43
42
42
41
41
41
40
40
40
40
40
40
41
41
42
42
42
43
43
43
44
44
44
44
44
44
44
44
44
45
45
46
46
47
47
48
48
49
49
50
50
51
51
52
52
53
53
53
53
54
54
54
54
54
54
54
54
54
54
54
54
54
55
55
55
56
57
58
59
60
61
63
64
65
66
67
68
69
70
71
72
73
73
74
74
75
75
75
75
75
75
75
75
75
75
75
75
76
76
76
76
76
76
75
75
75
75
75
75
74
74
74
74
74
74
74
75
75
75
75
75
74
74
74
74
73
72
72
71
71
70
70
69
69
69
68
68
68
68
68
68
68
68
68
68
68
69
69
69
69
69
68
68
68
67
67
66
65
65
64
63
62
61
59
58
57
56
55
53
52
51
50
49
48
47
46
45
44
44
43
43
43
43
42
42
42
42
42
42
42
41
41
41
41
40
40
39
39
38
38
37
37
36
35
35
34
34
33
33
32
32
31
31
30
30
30
30
30
30
30
30
30
30
30
30
30
30
30
30
29
29
29
28
28
28
27
27
27
26
26
25
25
24
24
24
24
24
24
24
23
23
23
23
23
23
23
23
23
23
23
23
23
23
23
23
23
23
23
23
23
23
23
24
24
24
25
25
25
26
26
27
28
28
29
29
29
30
30
31
31
31
32
32
32
33
33
33
33
33
34
34
34
34
34
34
34
35
35
35
35
36
36
36
36
37
37
37
37
37
37
38
38
38
39
39
40
41
41
42
43
44
45
45
46
47
48
49
49
50
50
51
51
51
51
52
52
52
52
52
52
51
51
51
52
52
52
52
52
53
53
53
53
53
53
52
52
52
51
51
50
50
49
48
48
47
46
46
45
44
44
43
43
43
42
42
42
42
42
42
42
42
43
43
43
44
44
45
45
45
45
46
46
46
46
46
46
47
47
47
47
48
48
48
49
49
49
49
49
49
49
49
48
48
47
47
46
45
45
44
44
43
43
42
42
42
42
43
43
43
43
44
44
44
45
45
45
45
45
45
45
45
45
46
46
46
47
47
47
48
48
48
49
49
49
49
49
50
51
51
52
53
54
55
56
57
58
59
59
60
61
61
61
61
61
61
61
61
62
62
63
64
64
65
66
67
67
68
68
69
69
69
69
68
68
68
67
67
67
68
68
68
68
68
68
69
69
69
68
68
69
69
70
71
72
73
74
75
76
77
78
78
79
79
79
79
79
79
79
79
79
80
80
81
81
81
82
82
82
82
82
83
83
83
83
84
85
86
86
87
88
88
88
88
88
88
88
88
88
88
88
88
88
89
90
91
92
93
94
96
96
97
98
98
98
98
98
98
99
99
99
99
100
101
102
103
104
105
107
108
108
109
110
110
111
111
112
113
114
115
117
118
120
122
124
125
126
127
127
128
128
129
129
129
130
131
132
133
134
135
136
138
139
140
142
143
144
145
146
147
148
149
151
152
153
155
156
158
159
160
161
162
163
163
164
164
164
164
163
163
162
161
160
160
160
159
159
159
159
159
159
160
160
160
161
161
162
162
163
163
163
164
164
164
163
163
162
162
161
160
159
158
156
155
154
153
152
151
150
150
149
149
148
148
147
147
146
146
145
144
144
143
142
141
140
139
137
135
134
132
131
130
129
128
127
127
126
125
124
124
123
122
121
119
118
116
115
113
111
109
107
105
103
102
101
100
99
99
98
99
99
100
101
102
104
106
108
109
110
111
112
113
113
113
113
113
113
113
113
112
112
112
111
111
111
111
111
111
111
112
112
112
113
113
114
115
115
116
118
119
119
120
120
121
121
120
120
119
118
117
116
114
113
112
110
109
108
107
107
107
107
108
108
108
108
109
109
109
109
109
110
110
111
111
112
113
114
115
116
118
119
121
122
123
124
125
126
126
126
126
126
125
124
124
123
122
121
120
118
117
116
115
114
113
111
110
109
108
107
106
104
103
102
101
99
98
97
96
95
95
94
93
92
92
91
91
90
90
89
89
88
88
87
86
86
85
84
83
83
82
82
81
81
81
81
81
81
82
83
83
84
85
85
86
86
87
87
88
88
88
88
88
88
88
87
87
87
87
87
87
87
87
87
88
88
88
88
88
88
88
88
88
88
88
88
87
87
86
85
85
84
83
83
82
81
81
80
79
79
78
78
77
77
77
77
78
78
79
79
80
80
81
81
81
82
82
82
83
83
83
84
84
85
85
86
86
87
87
88
88
88
89
89
89
88
88
88
88
88
88
89
89
89
89
90
90
90
91
91
91
91
91
91
91
91
91
90
90
89
88
87
86
85
83
81
79
78
76
74
73
71
70
69
68
67
66
65
65
65
65
65
65
65
65
65
65
65
65
65
64
64
64
64
64
63
63
62
62
61
60
59
58
57
56
55
54
52
51
50
49
48
46
45
44
42
41
39
38
36
35
34
33
32
31
30
30
29
29
29
29
28
28
27
26
26
25
24
23
22
20
19
18
17
16
15
14
12
12
11
10
9
9
8
7
7
7
7
6
6
6
6
6
6
6
6
6
5
5
5
5
5
4
4
4
4
3
3
3
3
3
3
3
2
2
2
2
2
2
2
2
2
2
2
2
2
2
2
2
2
2
2
2
2
2
2
2
2
2
2
2
2
2
2
2
2
2
2
2
2
2
2
2
2
2
2
2
2
2
2
2
2
2
2
2
2
2
2
2
2
2
2
2
2
2
2
2
2
2
2
2
2
2
2
2
2
2
2
2
2
2
2
2
2
2
2
2
2
2
2
2
2
2
2
2
2
2
2
2
2
2
2
2
2
2
2
2
2
2
2
2
2
2
2
2
2
2
2
2
2
2
2
2
2
2
2
2
2
2
2
2
2
2
2
2
2
2
2
2
2
2
2
2
2
2
2
2
2
2
2
2
2
2
2
2
2
2
2
2
2
2
2
2
2
2
2
2
2
2
2
2
2
2
2
2
2
2
2
2
2
2
2
2
2
2
2
2
2
2
2
2
2
2
2
2
2
2
2
2
2
2
2
2
2
2
2
2
2
2
2
2
2
2
2
2
2
2
2
